 #  Results from PENEPMA.
 #  Probability of emission of bremmstrahlung photons.
 #  1st column: E (eV).
 #  2nd and 3rd columns: probability density and STU (1/(eV*sr*electron)).

   6.750001E+01  1.071095E-06  4.656444E-09
   8.250001E+01  8.134273E-07  3.887622E-09
   9.750001E+01  6.541758E-07  2.897405E-09
   1.125000E+02  5.514950E-07  2.622509E-09
   1.275000E+02  4.765654E-07  2.388522E-09
   1.425000E+02  4.188224E-07  2.196415E-09
   1.575000E+02  3.728477E-07  2.017752E-09
   1.725000E+02  3.353369E-07  1.811274E-09
   1.875000E+02  3.049510E-07  1.700337E-09
   2.025000E+02  2.808646E-07  1.764581E-09
   2.175000E+02  2.578273E-07  1.488417E-09
   2.325000E+02  2.392850E-07  1.441622E-09
   2.475000E+02  2.224617E-07  1.344098E-09
   2.625000E+02  2.088034E-07  1.367580E-09
   2.775000E+02  1.960609E-07  1.259943E-09
   2.925000E+02  1.848116E-07  1.207113E-09
   3.075000E+02  1.742344E-07  1.083687E-09
   3.225000E+02  1.651356E-07  1.000401E-09
   3.375000E+02  1.568657E-07  9.736797E-10
   3.525000E+02  1.495514E-07  9.390210E-10
   3.675000E+02  1.432175E-07  9.756626E-10
   3.825000E+02  1.362333E-07  7.729247E-10
   3.975000E+02  1.305884E-07  7.797144E-10
   4.125000E+02  1.255753E-07  7.964137E-10
   4.275000E+02  1.206702E-07  7.444691E-10
   4.425000E+02  1.163376E-07  7.916441E-10
   4.575000E+02  1.115899E-07  6.287071E-10
   4.725000E+02  1.075673E-07  5.887742E-10
   4.875000E+02  1.037174E-07  5.593717E-10
   5.025001E+02  1.005050E-07  5.965461E-10
   5.175001E+02  9.719045E-08  5.119220E-10
   5.325001E+02  9.405709E-08  5.382885E-10
   5.475001E+02  9.126966E-08  4.762559E-10
   5.625001E+02  8.834955E-08  4.574375E-10
   5.775001E+02  8.622191E-08  4.875580E-10
   5.925001E+02  8.351174E-08  4.359743E-10
   6.075001E+02  8.095883E-08  3.775599E-10
   6.225001E+02  7.891799E-08  3.545516E-10
   6.375001E+02  7.681142E-08  4.295560E-10
   6.525001E+02  7.519356E-08  4.620539E-10
   6.675001E+02  7.290590E-08  3.249949E-10
   6.825001E+02  7.135338E-08  4.244181E-10
   6.975001E+02  6.962657E-08  4.226895E-10
   7.125001E+02  6.785033E-08  3.832185E-10
   7.275001E+02  6.620150E-08  3.611047E-10
   7.425001E+02  6.484325E-08  3.596702E-10
   7.575001E+02  6.329250E-08  2.871436E-10
   7.725001E+02  6.185126E-08  3.105047E-10
   7.875001E+02  6.045763E-08  2.549331E-10
   8.025001E+02  5.939532E-08  3.072231E-10
   8.175001E+02  5.813573E-08  3.516148E-10
   8.325001E+02  5.687068E-08  2.778303E-10
   8.475001E+02  5.594609E-08  3.901185E-10
   8.625001E+02  5.453849E-08  2.450760E-10
   8.775001E+02  5.362419E-08  3.236732E-10
   8.925001E+02  5.258736E-08  2.081465E-10
   9.075001E+02  5.156611E-08  2.400458E-10
   9.225001E+02  5.061378E-08  2.683556E-10
   9.375001E+02  4.985792E-08  3.418062E-10
   9.525001E+02  4.898753E-08  3.177050E-10
   9.675001E+02  4.791535E-08  2.640348E-10
   9.825001E+02  4.706339E-08  2.901089E-10
   9.975001E+02  4.640634E-08  3.142994E-10
   1.012500E+03  4.541875E-08  2.601893E-10
   1.027500E+03  4.484316E-08  3.123427E-10
   1.042500E+03  4.394920E-08  2.578085E-10
   1.057500E+03  4.323124E-08  2.252451E-10
   1.072500E+03  4.269599E-08  3.094071E-10
   1.087500E+03  4.179883E-08  1.855135E-10
   1.102500E+03  4.121872E-08  2.214823E-10
   1.117500E+03  4.049515E-08  2.201850E-10
   1.132500E+03  3.985504E-08  1.811246E-10
   1.147500E+03  3.930228E-08  2.179107E-10
   1.162500E+03  3.866664E-08  1.784102E-10
   1.177500E+03  3.817363E-08  1.772380E-10
   1.192500E+03  3.756152E-08  2.146078E-10
   1.207500E+03  3.705731E-08  2.755736E-10
   1.222500E+03  3.661037E-08  2.458017E-10
   1.237500E+03  3.602536E-08  1.721039E-10
   1.252500E+03  3.552971E-08  1.709803E-10
   1.267500E+03  3.501578E-08  2.096339E-10
   1.282500E+03  3.452802E-08  2.423159E-10
   1.297500E+03  3.403235E-08  1.673383E-10
   1.312500E+03  3.350215E-08  1.660088E-10
   1.327500E+03  3.319498E-08  2.060358E-10
   1.342500E+03  3.283475E-08  2.393839E-10
   1.357500E+03  3.223115E-08  1.627664E-10
   1.372500E+03  3.183905E-08  1.618392E-10
   1.387500E+03  3.149200E-08  1.609329E-10
   1.402500E+03  3.097893E-08  1.596350E-10
   1.417500E+03  3.061054E-08  1.587338E-10
   1.432500E+03  3.016621E-08  1.575420E-10
   1.447500E+03  2.987695E-08  1.567330E-10
   1.462500E+03  2.951758E-08  1.557884E-10
   1.477500E+03  2.910534E-08  1.547853E-10
   1.492500E+03  2.879352E-08  1.970669E-10
   1.507500E+03  2.849223E-08  1.964205E-10
   1.522500E+03  2.815952E-08  1.521215E-10
   1.537500E+03  2.776624E-08  1.510488E-10
   1.552500E+03  2.741140E-08  1.941404E-10
   1.567500E+03  2.708394E-08  1.934269E-10
   1.582500E+03  2.666663E-08  1.481076E-10
   1.597500E+03  2.662484E-08  1.924550E-10
   1.612500E+03  2.621856E-08  1.468286E-10
   1.627500E+03  2.594002E-08  1.910039E-10
   1.642500E+03  2.566484E-08  1.452312E-10
   1.657500E+03  2.530456E-08  1.442385E-10
   1.672500E+03  2.520643E-08  1.893729E-10
   1.687500E+03  2.487970E-08  1.886791E-10
   1.702500E+03  2.448126E-08  1.418114E-10
   1.717500E+03  2.430559E-08  1.413223E-10
   1.732500E+03  2.397604E-08  1.404206E-10
   1.747500E+03  2.377794E-08  1.398190E-10
   1.762500E+03  2.353550E-08  1.857240E-10
   1.777500E+03  2.329127E-08  1.852192E-10
   1.792500E+03  2.307981E-08  1.377099E-10
   1.807500E+03  2.278918E-08  1.368675E-10
   1.822500E+03  2.249372E-08  1.360109E-10
   1.837500E+03  2.238907E-08  1.356351E-10
   1.852500E+03  2.206361E-08  1.346709E-10
   1.867500E+03  2.183616E-08  1.339763E-10
   1.882500E+03  2.160315E-08  1.332036E-10
   1.897500E+03  2.142574E-08  1.327035E-10
   1.912500E+03  2.129575E-08  1.322908E-10
   1.927500E+03  2.101633E-08  1.314379E-10
   1.942500E+03  2.076116E-08  1.306624E-10
   1.957500E+03  2.064530E-08  1.302959E-10
   1.972500E+03  2.047537E-08  1.296955E-10
   1.987500E+03  2.021437E-08  1.288572E-10
   2.002500E+03  2.008628E-08  1.285064E-10
   2.017500E+03  1.984005E-08  1.277129E-10
   2.032500E+03  1.966739E-08  1.271198E-10
   2.047500E+03  1.957951E-08  1.268283E-10
   2.062500E+03  1.926645E-08  1.257912E-10
   2.077500E+03  1.911457E-08  1.253292E-10
   2.092500E+03  1.894401E-08  1.247726E-10
   2.107500E+03  1.876970E-08  1.242014E-10
   2.122500E+03  1.853386E-08  1.234043E-10
   2.137500E+03  1.851964E-08  1.233344E-10
   2.152500E+03  1.830851E-08  1.226385E-10
   2.167500E+03  1.812937E-08  1.220317E-10
   2.182500E+03  1.798734E-08  1.215501E-10
   2.197500E+03  1.786026E-08  1.211630E-10
   2.212500E+03  1.767747E-08  1.205351E-10
   2.227500E+03  1.749177E-08  1.198722E-10
   2.242500E+03  1.736132E-08  1.194185E-10
   2.257500E+03  1.716340E-08  1.187862E-10
   2.272500E+03  1.702739E-08  1.183271E-10
   2.287500E+03  1.688317E-08  1.177985E-10
   2.302500E+03  1.673904E-08  1.173212E-10
   2.317500E+03  1.662381E-08  1.168985E-10
   2.332500E+03  1.644841E-08  1.162275E-10
   2.347500E+03  1.632224E-08  1.158076E-10
   2.362500E+03  1.620601E-08  1.153535E-10
   2.377500E+03  1.607792E-08  1.149534E-10
   2.392500E+03  1.592842E-08  1.143951E-10
   2.407500E+03  1.579304E-08  1.138859E-10
   2.422500E+03  1.569987E-08  1.135718E-10
   2.437500E+03  1.556887E-08  1.131409E-10
   2.452500E+03  1.532637E-08  1.122017E-10
   2.467500E+03  1.532601E-08  1.121423E-10
   2.482500E+03  1.521215E-08  1.117673E-10
   2.497500E+03  1.507126E-08  1.659243E-10
   2.512500E+03  1.500283E-08  1.110207E-10
   2.527500E+03  1.486600E-08  1.105156E-10
   2.542500E+03  1.475337E-08  1.651417E-10
   2.557500E+03  1.463599E-08  1.096438E-10
   2.572500E+03  1.445640E-08  1.089803E-10
   2.587500E+03  1.433452E-08  1.085049E-10
   2.602500E+03  1.428666E-08  1.083350E-10
   2.617500E+03  1.416541E-08  1.078971E-10
   2.632500E+03  1.404498E-08  1.073879E-10
   2.647500E+03  1.395537E-08  1.070507E-10
   2.662500E+03  1.386225E-08  1.629086E-10
   2.677500E+03  1.375873E-08  1.063687E-10
   2.692500E+03  1.356902E-08  1.056027E-10
   2.707500E+03  1.349900E-08  1.053005E-10
   2.722500E+03  1.341468E-08  1.049913E-10
   2.737500E+03  1.337320E-08  1.047755E-10
   2.752500E+03  1.323026E-08  1.042358E-10
   2.767500E+03  1.312332E-08  1.038636E-10
   2.782500E+03  1.301557E-08  1.034080E-10
   2.797500E+03  1.298138E-08  1.032626E-10
   2.812500E+03  1.279559E-08  1.025211E-10
   2.827500E+03  1.271518E-08  1.022031E-10
   2.842500E+03  1.268154E-08  1.020771E-10
   2.857500E+03  1.257743E-08  1.016275E-10
   2.872500E+03  1.244999E-08  1.011389E-10
   2.887500E+03  1.238253E-08  1.008647E-10
   2.902500E+03  1.232072E-08  1.005669E-10
   2.917500E+03  1.220075E-08  1.000930E-10
   2.932500E+03  1.215070E-08  9.986774E-11
   2.947500E+03  1.204249E-08  9.949195E-11
   2.962500E+03  1.195060E-08  9.905687E-11
   2.977500E+03  1.190447E-08  9.884428E-11
   2.992500E+03  1.180255E-08  9.847176E-11
   3.007500E+03  1.178623E-08  9.840680E-11
   3.022500E+03  1.159907E-08  9.760193E-11
   3.037500E+03  1.155951E-08  9.743150E-11
   3.052500E+03  1.152796E-08  9.729999E-11
   3.067500E+03  1.131929E-08  9.639906E-11
   3.082500E+03  1.128811E-08  9.629323E-11
   3.097500E+03  1.121883E-08  9.599540E-11
   3.112500E+03  1.114572E-08  9.567974E-11
   3.127500E+03  1.110360E-08  9.547698E-11
   3.142500E+03  1.100195E-08  9.507917E-11
   3.157500E+03  1.091790E-08  9.471158E-11
   3.172500E+03  1.085317E-08  9.443744E-11
   3.187500E+03  1.087168E-08  9.448289E-11
   3.202500E+03  1.070239E-08  9.378494E-11
   3.217500E+03  1.066601E-08  9.359139E-11
   3.232500E+03  1.058989E-08  9.325831E-11
   3.247500E+03  1.053000E-08  9.302230E-11
   3.262500E+03  1.041896E-08  9.250155E-11
   3.277500E+03  1.038441E-08  9.235205E-11
   3.292500E+03  1.032579E-08  9.210782E-11
   3.307500E+03  1.028313E-08  9.188961E-11
   3.322500E+03  1.017738E-08  9.142145E-11
   3.337500E+03  1.012687E-08  9.119402E-11
   3.352500E+03  1.004592E-08  9.086333E-11
   3.367500E+03  1.004461E-08  1.529725E-10
   3.382500E+03  9.934885E-09  9.032635E-11
   3.397500E+03  9.869429E-09  9.003671E-11
   3.412500E+03  9.818925E-09  8.981479E-11
   3.427500E+03  9.718189E-09  8.933867E-11
   3.442500E+03  9.711261E-09  8.930493E-11
   3.457500E+03  9.663309E-09  8.910945E-11
   3.472500E+03  9.539965E-09  8.854519E-11
   3.487500E+03  9.455821E-09  8.808179E-11
   3.502500E+03  9.455548E-09  8.811535E-11
   3.517500E+03  9.390366E-09  8.780576E-11
   3.532500E+03  9.330381E-09  8.752153E-11
   3.547500E+03  9.274589E-09  8.728143E-11
   3.562500E+03  9.212689E-09  8.697193E-11
   3.577500E+03  9.236574E-09  8.708941E-11
   3.592500E+03  9.143314E-09  8.664897E-11
   3.607500E+03  9.029451E-09  8.609067E-11
   3.622500E+03  8.955608E-09  8.572844E-11
   3.637500E+03  8.929809E-09  8.562622E-11
   3.652500E+03  8.881675E-09  8.541499E-11
   3.667500E+03  8.808197E-09  8.504272E-11
   3.682500E+03  8.803092E-09  8.503345E-11
   3.697500E+03  8.721592E-09  8.464596E-11
   3.712500E+03  8.673185E-09  8.436618E-11
   3.727500E+03  8.623865E-09  8.413888E-11
   3.742500E+03  8.569714E-09  8.388770E-11
   3.757500E+03  8.469982E-09  8.341190E-11
   3.772500E+03  8.486664E-09  8.349528E-11
   3.787500E+03  8.396139E-09  8.302589E-11
   3.802500E+03  8.377633E-09  8.298364E-11
   3.817500E+03  8.297774E-09  8.251902E-11
   3.832500E+03  8.308531E-09  8.256802E-11
   3.847500E+03  8.173792E-09  8.190918E-11
   3.862500E+03  8.139970E-09  8.175690E-11
   3.877500E+03  8.095939E-09  8.155927E-11
   3.892500E+03  8.065764E-09  8.140785E-11
   3.907500E+03  8.036774E-09  8.124455E-11
   3.922500E+03  8.003773E-09  8.103231E-11
   3.937500E+03  7.932118E-09  8.072526E-11
   3.952500E+03  7.861831E-09  8.031589E-11
   3.967500E+03  7.801572E-09  8.001680E-11
   3.982500E+03  7.817617E-09  8.014167E-11
   3.997500E+03  7.731103E-09  7.967322E-11
   4.012500E+03  7.718705E-09  7.960841E-11
   4.027500E+03  7.689806E-09  7.944272E-11
   4.042500E+03  7.589891E-09  7.895918E-11
   4.057500E+03  7.556981E-09  7.878099E-11
   4.072500E+03  7.516231E-09  7.855252E-11
   4.087500E+03  7.540481E-09  7.869531E-11
   4.102500E+03  7.466912E-09  7.830873E-11
   4.117500E+03  7.409661E-09  7.795304E-11
   4.132500E+03  7.371464E-09  7.780942E-11
   4.147500E+03  7.317313E-09  7.748977E-11
   4.162500E+03  7.335819E-09  7.760463E-11
   4.177500E+03  7.286956E-09  7.732533E-11
   4.192500E+03  7.259333E-09  7.718844E-11
   4.207500E+03  7.179292E-09  7.675509E-11
   4.222500E+03  7.122132E-09  7.649130E-11
   4.237500E+03  7.069713E-09  7.619973E-11
   4.252500E+03  7.029693E-09  7.598195E-11
   4.267500E+03  7.060141E-09  7.613414E-11
   4.282500E+03  6.935065E-09  7.542859E-11
   4.297500E+03  6.975451E-09  7.566379E-11
   4.312500E+03  6.907807E-09  7.531593E-11
   4.327500E+03  6.873348E-09  7.509064E-11
   4.342500E+03  6.798867E-09  7.472701E-11
   4.357500E+03  6.791301E-09  7.468700E-11
   4.372500E+03  6.764043E-09  7.452602E-11
   4.387500E+03  6.707704E-09  7.420514E-11
   4.402500E+03  6.698314E-09  7.414984E-11
   4.417500E+03  6.629759E-09  7.378052E-11
   4.432500E+03  6.602775E-09  7.359666E-11
   4.447500E+03  6.575153E-09  7.346076E-11
   4.462500E+03  6.542881E-09  7.329687E-11
   4.477500E+03  6.522916E-09  7.316293E-11
   4.492500E+03  6.448800E-09  7.274620E-11
   4.507500E+03  6.458555E-09  7.280359E-11
   4.522500E+03  6.411514E-09  7.254027E-11
   4.537500E+03  6.389818E-09  7.243446E-11
   4.552500E+03  6.343233E-09  7.218062E-11
   4.567500E+03  6.283521E-09  7.180394E-11
   4.582500E+03  6.245871E-09  7.161093E-11
   4.597500E+03  6.241313E-09  7.160916E-11
   4.612500E+03  6.173852E-09  7.118422E-11
   4.627500E+03  6.186159E-09  7.124798E-11
   4.642500E+03  6.144406E-09  7.101948E-11
   4.657500E+03  6.075851E-09  7.061113E-11
   4.672500E+03  6.091622E-09  7.071010E-11
   4.687500E+03  6.070928E-09  7.059345E-11
   4.702500E+03  6.043671E-09  7.043564E-11
   4.717500E+03  5.994898E-09  7.014788E-11
   4.732500E+03  5.938742E-09  6.981281E-11
   4.747500E+03  5.914674E-09  6.970934E-11
   4.762500E+03  5.874745E-09  6.943784E-11
   4.777500E+03  5.835362E-09  6.918901E-11
   4.792500E+03  5.818497E-09  6.912469E-11
   4.807500E+03  5.808925E-09  6.904033E-11
   4.822500E+03  5.765349E-09  6.879792E-11
   4.837500E+03  5.703631E-09  6.841984E-11
   4.852500E+03  5.731254E-09  6.859873E-11
   4.867500E+03  5.672271E-09  6.823141E-11
   4.882500E+03  5.686493E-09  6.831703E-11
   4.897500E+03  5.617664E-09  6.788932E-11
   4.912500E+03  5.580926E-09  6.768370E-11
   4.927500E+03  5.578191E-09  6.766730E-11
   4.942500E+03  5.517020E-09  6.728604E-11
   4.957500E+03  5.510548E-09  6.726255E-11
   4.972500E+03  5.467519E-09  6.698450E-11
   4.987500E+03  5.464692E-09  6.694838E-11
   5.002501E+03  5.397414E-09  6.658184E-11
   5.017501E+03  5.405983E-09  6.659141E-11
   5.032501E+03  5.367604E-09  6.634797E-11
   5.047501E+03  5.344813E-09  6.624110E-11
   5.062501E+03  5.358578E-09  6.630512E-11
   5.077501E+03  5.310809E-09  6.601646E-11
   5.092501E+03  5.234779E-09  6.555393E-11
   5.107501E+03  5.268236E-09  6.574495E-11
   5.122501E+03  5.241160E-09  6.558775E-11
   5.137501E+03  5.218460E-09  6.545618E-11
   5.152501E+03  5.153552E-09  6.502800E-11
   5.167501E+03  5.177984E-09  6.519650E-11
   5.182501E+03  5.155011E-09  6.506931E-11
   5.197501E+03  5.096575E-09  6.466300E-11
   5.212501E+03  5.069135E-09  6.453095E-11
   5.227501E+03  5.014072E-09  6.416003E-11
   5.242501E+03  4.983806E-09  6.395988E-11
   5.257501E+03  4.982894E-09  6.391431E-11
   5.272501E+03  5.006688E-09  6.412258E-11
   5.287501E+03  4.968582E-09  6.386308E-11
   5.302501E+03  4.914340E-09  6.353937E-11
   5.317501E+03  4.874410E-09  6.322907E-11
   5.332501E+03  4.879242E-09  6.328021E-11
   5.347501E+03  4.891275E-09  6.334801E-11
   5.362501E+03  4.818345E-09  6.288905E-11
   5.377501E+03  4.808134E-09  6.280993E-11
   5.392501E+03  4.806402E-09  6.279634E-11
   5.407501E+03  4.748696E-09  6.243006E-11
   5.422501E+03  4.728002E-09  6.231917E-11
   5.437501E+03  4.756080E-09  6.246256E-11
   5.452501E+03  4.718703E-09  6.222483E-11
   5.467501E+03  4.672392E-09  6.192030E-11
   5.482501E+03  4.645590E-09  6.174769E-11
   5.497501E+03  4.662911E-09  6.187978E-11
   5.512501E+03  4.596089E-09  6.141963E-11
   5.527501E+03  4.585696E-09  6.133616E-11
   5.542501E+03  4.580682E-09  6.130657E-11
   5.557501E+03  4.552421E-09  6.112738E-11
   5.572501E+03  4.543214E-09  6.107957E-11
   5.587501E+03  4.487787E-09  6.068720E-11
   5.602501E+03  4.516503E-09  6.090391E-11
   5.617501E+03  4.478670E-09  6.063471E-11
   5.632501E+03  4.440564E-09  6.038226E-11
   5.647501E+03  4.435094E-09  6.034788E-11
   5.662501E+03  4.435824E-09  6.032305E-11
   5.677501E+03  4.398082E-09  6.009664E-11
   5.692501E+03  4.335635E-09  5.966991E-11
   5.707501E+03  4.348854E-09  5.975996E-11
   5.722501E+03  4.334268E-09  5.963048E-11
   5.737501E+03  4.311203E-09  5.948423E-11
   5.752501E+03  4.271456E-09  5.919910E-11
   5.767501E+03  4.261519E-09  5.913835E-11
   5.782501E+03  4.242375E-09  5.901281E-11
   5.797501E+03  4.195335E-09  5.866842E-11
   5.812501E+03  4.172544E-09  5.852418E-11
   5.827501E+03  4.175917E-09  5.853102E-11
   5.842501E+03  4.179472E-09  5.855318E-11
   5.857501E+03  4.168168E-09  5.848991E-11
   5.872501E+03  4.153582E-09  5.837039E-11
   5.887501E+03  4.097881E-09  5.797812E-11
   5.902501E+03  4.093961E-09  5.795962E-11
   5.917501E+03  4.082019E-09  5.789120E-11
   5.932501E+03  4.042636E-09  5.761362E-11
   5.947501E+03  4.020757E-09  5.746143E-11
   5.962501E+03  3.997510E-09  5.728083E-11
   5.977501E+03  3.987665E-09  5.722780E-11
   5.992501E+03  3.985842E-09  5.719260E-11
   6.007501E+03  3.974081E-09  5.710359E-11
   6.022501E+03  3.933787E-09  5.682083E-11
   6.037501E+03  3.912637E-09  5.666248E-11
   6.052501E+03  3.893037E-09  5.653336E-11
   6.067501E+03  3.880913E-09  5.643669E-11
   6.082501E+03  3.847456E-09  5.618944E-11
   6.097501E+03  3.881277E-09  5.642872E-11
   6.112501E+03  3.839524E-09  5.613726E-11
   6.127501E+03  3.873620E-09  5.637741E-11
   6.142501E+03  3.831229E-09  5.607571E-11
   6.157501E+03  3.781089E-09  5.569024E-11
   6.172501E+03  3.751734E-09  5.548323E-11
   6.187501E+03  3.717001E-09  5.522495E-11
   6.202501E+03  3.759574E-09  5.554210E-11
   6.217501E+03  3.706700E-09  5.516654E-11
   6.232501E+03  3.716272E-09  5.522092E-11
   6.247501E+03  3.688011E-09  5.501886E-11
   6.262501E+03  3.670872E-09  5.488228E-11
   6.277501E+03  3.685003E-09  5.500066E-11
   6.292501E+03  3.626476E-09  5.458052E-11
   6.307501E+03  3.593201E-09  5.432470E-11
   6.322501E+03  3.613531E-09  5.444399E-11
   6.337501E+03  3.567949E-09  5.410042E-11
   6.352501E+03  3.580074E-09  5.418200E-11
   6.367501E+03  3.560382E-09  5.405448E-11
   6.382501E+03  3.532760E-09  5.385975E-11
   6.397501E+03  3.469493E-09  5.337333E-11
   6.412501E+03  3.465208E-09  5.333219E-11
   6.427501E+03  3.476512E-09  5.342690E-11
   6.442501E+03  3.434668E-09  5.309408E-11
   6.457501E+03  3.438224E-09  5.311855E-11
   6.472501E+03  3.452627E-09  5.323175E-11
   6.487501E+03  3.400756E-09  5.285294E-11
   6.502501E+03  3.400664E-09  5.283808E-11
   6.517501E+03  3.398476E-09  5.280845E-11
   6.532501E+03  3.384073E-09  5.270710E-11
   6.547501E+03  3.370945E-09  5.260264E-11
   6.562501E+03  3.370307E-09  5.258063E-11
   6.577501E+03  3.356997E-09  5.249445E-11
   6.592501E+03  3.326184E-09  5.222887E-11
   6.607501E+03  3.285981E-09  5.193862E-11
   6.622501E+03  3.287166E-09  5.196232E-11
   6.637501E+03  3.291451E-09  5.196139E-11
   6.652501E+03  3.258905E-09  5.173289E-11
   6.667501E+03  3.254894E-09  5.168102E-11
   6.682501E+03  3.258450E-09  5.171340E-11
   6.697501E+03  3.212868E-09  5.135278E-11
   6.712501E+03  3.221711E-09  5.142003E-11
   6.727501E+03  3.171662E-09  5.102016E-11
   6.742501E+03  3.179502E-09  5.107985E-11
   6.757501E+03  3.178317E-09  5.108064E-11
   6.772501E+03  3.146866E-09  5.080982E-11
   6.787501E+03  3.147322E-09  5.081053E-11
   6.802501E+03  3.131003E-09  5.068383E-11
