 #  Results from PENEPMA.
 #  Probability of emission of bremmstrahlung photons.
 #  1st column: E (eV).
 #  2nd and 3rd columns: probability density and STU (1/(eV*sr*electron)).

   6.750001E+01  1.049212E-06  4.952862E-09
   8.250001E+01  7.921442E-07  3.897852E-09
   9.750001E+01  6.368297E-07  2.900518E-09
   1.125000E+02  5.343293E-07  2.364382E-09
   1.275000E+02  4.630019E-07  2.271601E-09
   1.425000E+02  4.066997E-07  2.095920E-09
   1.575000E+02  3.622365E-07  1.949144E-09
   1.725000E+02  3.257223E-07  1.778569E-09
   1.875000E+02  2.959609E-07  1.638627E-09
   2.025000E+02  2.712859E-07  1.581040E-09
   2.175000E+02  2.488293E-07  1.388081E-09
   2.325000E+02  2.310021E-07  1.278311E-09
   2.475000E+02  2.151395E-07  1.227649E-09
   2.625000E+02  2.009253E-07  1.153910E-09
   2.775000E+02  1.885482E-07  1.033929E-09
   2.925000E+02  1.780686E-07  1.077343E-09
   3.075000E+02  1.683457E-07  1.049639E-09
   3.225000E+02  1.592525E-07  9.837663E-10
   3.375000E+02  1.514420E-07  9.001252E-10
   3.525000E+02  1.440538E-07  8.606661E-10
   3.675000E+02  1.377864E-07  8.791080E-10
   3.825000E+02  1.316105E-07  8.394439E-10
   3.975000E+02  1.254840E-07  6.597941E-10
   4.125000E+02  1.206408E-07  6.941529E-10
   4.275000E+02  1.160976E-07  7.351230E-10
   4.425000E+02  1.115714E-07  6.788692E-10
   4.575000E+02  1.072766E-07  5.536776E-10
   4.725000E+02  1.038584E-07  6.053725E-10
   4.875000E+02  1.002020E-07  6.128951E-10
   5.025001E+02  9.642002E-08  4.708571E-10
   5.175001E+02  9.316021E-08  4.541220E-10
   5.325001E+02  9.033831E-08  4.075958E-10
   5.475001E+02  8.779158E-08  5.018332E-10
   5.625001E+02  8.522048E-08  5.119939E-10
   5.775001E+02  8.276352E-08  4.974316E-10
   5.925001E+02  8.047534E-08  4.417478E-10
   6.075001E+02  7.806346E-08  3.942835E-10
   6.225001E+02  7.571599E-08  3.581996E-10
   6.375001E+02  7.395178E-08  3.896197E-10
   6.525001E+02  7.196684E-08  3.707484E-10
   6.675001E+02  7.008760E-08  3.512691E-10
   6.825001E+02  6.841802E-08  3.833948E-10
   6.975001E+02  6.685333E-08  3.815910E-10
   7.125001E+02  6.532825E-08  3.961055E-10
   7.275001E+02  6.381898E-08  3.944810E-10
   7.425001E+02  6.229683E-08  3.224660E-10
   7.575001E+02  6.084652E-08  3.205119E-10
   7.725001E+02  5.936905E-08  3.377493E-10
   7.875001E+02  5.804053E-08  3.169208E-10
   8.025001E+02  5.706725E-08  3.530199E-10
   8.175001E+02  5.570065E-08  3.134216E-10
   8.325001E+02  5.478000E-08  4.004610E-10
   8.475001E+02  5.367481E-08  3.831443E-10
   8.625001E+02  5.256978E-08  3.473833E-10
   8.775001E+02  5.157165E-08  3.462486E-10
   8.925001E+02  5.050054E-08  2.619783E-10
   9.075001E+02  4.949747E-08  2.835927E-10
   9.225001E+02  4.860969E-08  2.589501E-10
   9.375001E+02  4.778520E-08  3.595673E-10
   9.525001E+02  4.668802E-08  2.558276E-10
   9.675001E+02  4.591350E-08  2.543627E-10
   9.825001E+02  4.514007E-08  2.985696E-10
   9.975001E+02  4.441370E-08  2.755880E-10
   1.012500E+03  4.372830E-08  2.965810E-10
   1.027500E+03  4.287176E-08  2.224494E-10
   1.042500E+03  4.241068E-08  3.703112E-10
   1.057500E+03  4.143315E-08  1.889225E-10
   1.072500E+03  4.080218E-08  2.698277E-10
   1.087500E+03  4.005015E-08  2.441906E-10
   1.102500E+03  3.955306E-08  2.678777E-10
   1.117500E+03  3.879430E-08  1.827937E-10
   1.132500E+03  3.829895E-08  2.410249E-10
   1.147500E+03  3.767446E-08  2.121962E-10
   1.162500E+03  3.713273E-08  2.389769E-10
   1.177500E+03  3.653851E-08  2.378663E-10
   1.192500E+03  3.600405E-08  1.761008E-10
   1.207500E+03  3.558051E-08  2.078208E-10
   1.222500E+03  3.496921E-08  2.065479E-10
   1.237500E+03  3.447790E-08  1.723255E-10
   1.252500E+03  3.403092E-08  2.334008E-10
   1.267500E+03  3.346376E-08  2.034343E-10
   1.282500E+03  3.310652E-08  2.315734E-10
   1.297500E+03  3.266446E-08  2.307811E-10
   1.312500E+03  3.210186E-08  1.662931E-10
   1.327500E+03  3.180071E-08  1.998302E-10
   1.342500E+03  3.135035E-08  1.989318E-10
   1.357500E+03  3.081641E-08  1.978668E-10
   1.372500E+03  3.051847E-08  1.620244E-10
   1.387500E+03  3.017008E-08  1.611794E-10
   1.402500E+03  2.963109E-08  1.596972E-10
   1.417500E+03  2.924607E-08  1.586546E-10
   1.432500E+03  2.903739E-08  2.238553E-10
   1.447500E+03  2.857581E-08  1.567888E-10
   1.462500E+03  2.821397E-08  1.557958E-10
   1.477500E+03  2.788355E-08  1.911772E-10
   1.492500E+03  2.756015E-08  1.904319E-10
   1.507500E+03  2.724656E-08  1.530902E-10
   1.522500E+03  2.685174E-08  1.888359E-10
   1.537500E+03  2.655226E-08  1.511880E-10
   1.552500E+03  2.615227E-08  1.498985E-10
   1.567500E+03  2.604039E-08  1.870178E-10
   1.582500E+03  2.560297E-08  1.484233E-10
   1.597500E+03  2.540848E-08  1.855837E-10
   1.612500E+03  2.510462E-08  1.469334E-10
   1.627500E+03  2.486263E-08  1.842808E-10
   1.642500E+03  2.456470E-08  1.835640E-10
   1.657500E+03  2.434462E-08  1.830705E-10
   1.672500E+03  2.399507E-08  1.436974E-10
   1.687500E+03  2.370964E-08  1.427905E-10
   1.702500E+03  2.350387E-08  1.421742E-10
   1.717500E+03  2.323314E-08  1.413752E-10
   1.732500E+03  2.295105E-08  1.405591E-10
   1.747500E+03  2.266266E-08  1.396941E-10
   1.762500E+03  2.258332E-08  1.788763E-10
   1.777500E+03  2.226629E-08  1.384098E-10
   1.792500E+03  2.198640E-08  1.375262E-10
   1.807500E+03  2.172539E-08  1.366745E-10
   1.822500E+03  2.149730E-08  1.359249E-10
   1.837500E+03  2.129210E-08  1.353107E-10
   1.852500E+03  2.114624E-08  1.348810E-10
   1.867500E+03  2.092759E-08  1.341837E-10
   1.882500E+03  2.072306E-08  1.334511E-10
   1.897500E+03  2.043964E-08  1.325336E-10
   1.912500E+03  2.039492E-08  1.735314E-10
   1.927500E+03  2.009898E-08  1.315152E-10
   1.942500E+03  1.990838E-08  1.308511E-10
   1.957500E+03  1.968756E-08  1.717640E-10
   1.972500E+03  1.950466E-08  1.295143E-10
   1.987500E+03  1.938398E-08  1.291440E-10
   2.002500E+03  1.920254E-08  1.285255E-10
   2.017500E+03  1.912761E-08  2.038958E-10
   2.032500E+03  1.878480E-08  1.270574E-10
   2.047500E+03  1.864247E-08  1.266565E-10
   2.062500E+03  1.852065E-08  1.262059E-10
   2.077500E+03  1.818275E-08  1.250124E-10
   2.092500E+03  1.814567E-08  1.678327E-10
   2.107500E+03  1.794178E-08  1.242145E-10
   2.122500E+03  1.777245E-08  1.235835E-10
   2.137500E+03  1.758757E-08  1.229747E-10
   2.152500E+03  1.745202E-08  1.224966E-10
   2.167500E+03  1.727954E-08  1.218750E-10
   2.182500E+03  1.712070E-08  1.213702E-10
   2.197500E+03  1.697103E-08  1.208362E-10
   2.212500E+03  1.691055E-08  1.205749E-10
   2.227500E+03  1.669638E-08  1.197505E-10
   2.242500E+03  1.653802E-08  1.192597E-10
   2.257500E+03  1.643795E-08  1.188834E-10
   2.272500E+03  1.634341E-08  1.185052E-10
   2.287500E+03  1.607525E-08  1.175520E-10
   2.302500E+03  1.607201E-08  1.175406E-10
   2.317500E+03  1.592873E-08  1.169784E-10
   2.332500E+03  1.563338E-08  1.159526E-10
   2.347500E+03  1.562250E-08  1.158959E-10
   2.362500E+03  1.547798E-08  1.153365E-10
   2.377500E+03  1.533593E-08  1.148588E-10
   2.392500E+03  1.518606E-08  1.143031E-10
   2.407500E+03  1.506987E-08  1.138116E-10
   2.422500E+03  1.495082E-08  1.133884E-10
   2.437500E+03  1.483436E-08  1.591340E-10
   2.452500E+03  1.474428E-08  1.125356E-10
   2.467500E+03  1.458907E-08  1.120115E-10
   2.482500E+03  1.441860E-08  1.113373E-10
   2.497500E+03  1.437710E-08  1.111405E-10
   2.512500E+03  1.430307E-08  1.108980E-10
   2.527500E+03  1.410150E-08  1.100899E-10
   2.542500E+03  1.398531E-08  1.096495E-10
   2.557500E+03  1.385538E-08  1.090894E-10
   2.572500E+03  1.377715E-08  1.087822E-10
   2.587500E+03  1.369368E-08  1.084607E-10
   2.602500E+03  1.358817E-08  1.080614E-10
   2.617500E+03  1.343344E-08  1.074420E-10
   2.632500E+03  1.339767E-08  1.072723E-10
   2.647500E+03  1.326488E-08  1.067624E-10
   2.662500E+03  1.314811E-08  1.062960E-10
   2.677500E+03  1.304699E-08  1.059216E-10
   2.692500E+03  1.296361E-08  1.055509E-10
   2.707500E+03  1.284437E-08  1.050954E-10
   2.722500E+03  1.282243E-08  1.049972E-10
   2.737500E+03  1.276567E-08  1.047466E-10
   2.752500E+03  1.258575E-08  1.040036E-10
   2.767500E+03  1.247728E-08  1.035734E-10
   2.782500E+03  1.241155E-08  1.032583E-10
   2.797500E+03  1.231940E-08  1.029207E-10
   2.812500E+03  1.221284E-08  1.024400E-10
   2.827500E+03  1.209608E-08  1.019382E-10
   2.842500E+03  1.204247E-08  1.017934E-10
   2.857500E+03  1.197378E-08  1.014716E-10
   2.872500E+03  1.186579E-08  1.009550E-10
   2.887500E+03  1.182305E-08  1.007994E-10
   2.902500E+03  1.172155E-08  1.003504E-10
   2.917500E+03  1.164142E-08  1.000151E-10
   2.932500E+03  1.154574E-08  9.963544E-11
   2.947500E+03  1.143393E-08  9.916956E-11
   2.962500E+03  1.138871E-08  9.896325E-11
   2.977500E+03  1.131764E-08  9.862337E-11
   2.992500E+03  1.115242E-08  9.790290E-11
   3.007500E+03  1.114851E-08  9.785936E-11
   3.022500E+03  1.103994E-08  9.742967E-11
   3.037500E+03  1.102802E-08  9.736399E-11
   3.052500E+03  1.084457E-08  9.653838E-11
   3.067500E+03  1.079754E-08  9.629193E-11
   3.082500E+03  1.079888E-08  9.632922E-11
   3.097500E+03  1.068841E-08  9.584382E-11
   3.112500E+03  1.060637E-08  9.543810E-11
   3.127500E+03  1.054894E-08  9.521938E-11
   3.142500E+03  1.047167E-08  9.484670E-11
   3.157500E+03  1.038762E-08  9.449786E-11
   3.172500E+03  1.034489E-08  9.428239E-11
   3.187500E+03  1.027029E-08  9.394135E-11
   3.202500E+03  1.018386E-08  9.357738E-11
   3.217500E+03  1.011212E-08  9.321230E-11
   3.232500E+03  1.002931E-08  9.285736E-11
   3.247500E+03  9.968737E-09  9.256309E-11
   3.262500E+03  9.956431E-09  9.250006E-11
   3.277500E+03  9.953379E-09  9.252159E-11
   3.292500E+03  9.829649E-09  9.187171E-11
   3.307500E+03  9.761822E-09  9.158913E-11
   3.322500E+03  9.670623E-09  9.116460E-11
   3.337500E+03  9.645248E-09  9.105366E-11
   3.352500E+03  9.533634E-09  9.051987E-11
   3.367500E+03  9.501009E-09  9.034714E-11
   3.382500E+03  9.444534E-09  9.010173E-11
   3.397500E+03  9.410000E-09  8.992197E-11
   3.412500E+03  9.311074E-09  8.944552E-11
   3.427500E+03  9.262327E-09  8.918627E-11
   3.442500E+03  9.182861E-09  8.885159E-11
   3.457500E+03  9.119995E-09  8.849282E-11
   3.472500E+03  9.066382E-09  8.828633E-11
   3.487500E+03  9.043201E-09  8.815609E-11
   3.502500E+03  8.935212E-09  8.763357E-11
   3.517500E+03  8.915942E-09  8.751276E-11
   3.532500E+03  8.865668E-09  8.727117E-11
   3.547500E+03  8.786489E-09  8.687364E-11
   3.562500E+03  8.720857E-09  8.655163E-11
   3.577500E+03  8.678024E-09  8.632748E-11
   3.592500E+03  8.589973E-09  8.590952E-11
   3.607500E+03  8.557824E-09  8.573719E-11
   3.622500E+03  8.505928E-09  8.548144E-11
   3.637500E+03  8.468915E-09  8.527838E-11
   3.652500E+03  8.406525E-09  8.502788E-11
   3.667500E+03  8.378383E-09  8.486686E-11
   3.682500E+03  8.338412E-09  8.463495E-11
   3.697500E+03  8.263335E-09  8.423539E-11
   3.712500E+03  8.187877E-09  8.388957E-11
   3.727500E+03  8.181676E-09  8.384371E-11
   3.742500E+03  8.134741E-09  8.359428E-11
   3.757500E+03  8.066723E-09  8.324113E-11
   3.772500E+03  8.019788E-09  8.297899E-11
   3.787500E+03  7.973521E-09  8.276988E-11
   3.802500E+03  7.934885E-09  8.257446E-11
   3.817500E+03  7.882513E-09  8.230908E-11
   3.832500E+03  7.843400E-09  8.210110E-11
   3.847500E+03  7.808008E-09  8.194275E-11
   3.862500E+03  7.736365E-09  8.151623E-11
   3.877500E+03  7.678937E-09  8.122502E-11
   3.892500E+03  7.616452E-09  8.088910E-11
   3.907500E+03  7.631620E-09  8.096933E-11
   3.922500E+03  7.570948E-09  8.068446E-11
   3.937500E+03  7.522868E-09  8.041382E-11
   3.952500E+03  7.447600E-09  7.997819E-11
   3.967500E+03  7.462005E-09  8.007988E-11
   3.982500E+03  7.380060E-09  7.961720E-11
   3.997500E+03  7.382158E-09  7.960469E-11
   4.012500E+03  7.378438E-09  7.959110E-11
   4.027500E+03  7.278844E-09  7.911705E-11
   4.042500E+03  7.216073E-09  7.871000E-11
   4.057500E+03  7.194800E-09  7.860079E-11
   4.072500E+03  7.078607E-09  7.798228E-11
   4.087500E+03  7.106558E-09  7.814742E-11
   4.102500E+03  7.057333E-09  7.784151E-11
   4.117500E+03  7.011734E-09  7.761115E-11
   4.132500E+03  6.980062E-09  7.743402E-11
   4.147500E+03  6.909850E-09  7.703120E-11
   4.162500E+03  6.879514E-09  7.684406E-11
   4.177500E+03  6.945338E-09  7.725352E-11
   4.192500E+03  6.850800E-09  7.677004E-11
   4.207500E+03  6.786980E-09  7.635079E-11
   4.222500E+03  6.782878E-09  7.632160E-11
   4.237500E+03  6.727452E-09  7.603287E-11
   4.252500E+03  6.652566E-09  7.559295E-11
   4.267500E+03  6.651898E-09  7.557946E-11
   4.282500E+03  6.595615E-09  7.524597E-11
   4.297500E+03  6.595615E-09  7.529602E-11
   4.312500E+03  6.508804E-09  7.475785E-11
   4.327500E+03  6.491442E-09  7.466488E-11
   4.342500E+03  6.479613E-09  7.461749E-11
   4.357500E+03  6.380496E-09  7.405251E-11
   4.372500E+03  6.383167E-09  7.406227E-11
   4.387500E+03  6.401006E-09  7.412560E-11
   4.402500E+03  6.313432E-09  7.364993E-11
   4.417500E+03  6.271553E-09  7.336389E-11
   4.432500E+03  6.276323E-09  7.342826E-11
   4.447500E+03  6.197716E-09  7.296971E-11
   4.462500E+03  6.196285E-09  7.297711E-11
   4.477500E+03  6.149827E-09  7.270335E-11
   4.492500E+03  6.142005E-09  7.260133E-11
   4.507500E+03  6.104228E-09  7.239057E-11
   4.522500E+03  6.059010E-09  7.211160E-11
   4.537500E+03  6.006542E-09  7.180239E-11
   4.552500E+03  6.005778E-09  7.180473E-11
   4.567500E+03  5.961514E-09  7.154053E-11
   4.582500E+03  5.915056E-09  7.127145E-11
   4.597500E+03  5.931655E-09  7.138509E-11
   4.612500E+03  5.916678E-09  7.129030E-11
   4.627500E+03  5.816416E-09  7.065062E-11
   4.642500E+03  5.802775E-09  7.062435E-11
   4.657500E+03  5.768337E-09  7.040436E-11
   4.672500E+03  5.775968E-09  7.043988E-11
   4.687500E+03  5.707092E-09  7.002609E-11
   4.702500E+03  5.671032E-09  6.980136E-11
   4.717500E+03  5.657581E-09  6.971131E-11
   4.732500E+03  5.649473E-09  6.965135E-11
   4.747500E+03  5.613890E-09  6.948136E-11
   4.762500E+03  5.590422E-09  6.933786E-11
   4.777500E+03  5.558178E-09  6.908924E-11
   4.792500E+03  5.531944E-09  6.889935E-11
   4.807500E+03  5.483292E-09  6.861087E-11
   4.822500E+03  5.444466E-09  6.837858E-11
   4.837500E+03  5.434354E-09  6.832895E-11
   4.852500E+03  5.409646E-09  6.816203E-11
   4.867500E+03  5.386465E-09  6.800904E-11
   4.882500E+03  5.368339E-09  6.789216E-11
   4.897500E+03  5.348592E-09  6.778304E-11
   4.912500E+03  5.275614E-09  6.733399E-11
   4.927500E+03  5.256058E-09  6.718614E-11
   4.942500E+03  5.252147E-09  6.718458E-11
   4.957500E+03  5.203304E-09  6.682729E-11
   4.972500E+03  5.178500E-09  6.672838E-11
   4.987500E+03  5.137957E-09  6.644265E-11
   5.002501E+03  5.119641E-09  6.632420E-11
   5.017501E+03  5.122217E-09  6.632835E-11
   5.032501E+03  5.081196E-09  6.607251E-11
   5.047501E+03  5.043991E-09  6.580918E-11
   5.062501E+03  5.044087E-09  6.581975E-11
   5.077501E+03  4.992477E-09  6.549196E-11
   5.092501E+03  4.966339E-09  6.531210E-11
   5.107501E+03  4.964335E-09  6.529404E-11
   5.122501E+03  4.905285E-09  6.492242E-11
   5.137501E+03  4.941726E-09  6.515552E-11
   5.152501E+03  4.901946E-09  6.491443E-11
   5.167501E+03  4.862643E-09  6.461348E-11
   5.182501E+03  4.847379E-09  6.451553E-11
   5.197501E+03  4.833642E-09  6.442750E-11
   5.212501E+03  4.835169E-09  6.447315E-11
   5.227501E+03  4.726512E-09  6.374106E-11
   5.242501E+03  4.736147E-09  6.379632E-11
   5.257501E+03  4.704666E-09  6.357198E-11
   5.272501E+03  4.670228E-09  6.333475E-11
   5.287501E+03  4.671468E-09  6.333919E-11
   5.302501E+03  4.662310E-09  6.327638E-11
   5.317501E+03  4.642849E-09  6.318695E-11
   5.332501E+03  4.625869E-09  6.304529E-11
   5.347501E+03  4.567200E-09  6.262080E-11
   5.362501E+03  4.569871E-09  6.262456E-11
   5.377501E+03  4.521219E-09  6.232084E-11
   5.392501E+03  4.531808E-09  6.237469E-11
   5.407501E+03  4.493649E-09  6.212183E-11
   5.422501E+03  4.473330E-09  6.198781E-11
   5.437501E+03  4.453201E-09  6.182965E-11
   5.452501E+03  4.430306E-09  6.167855E-11
   5.467501E+03  4.433073E-09  6.169232E-11
   5.482501E+03  4.369062E-09  6.124392E-11
   5.497501E+03  4.376407E-09  6.131497E-11
   5.512501E+03  4.337104E-09  6.105636E-11
   5.527501E+03  4.323176E-09  6.093503E-11
   5.542501E+03  4.312969E-09  6.088388E-11
   5.557501E+03  4.287498E-09  6.066375E-11
   5.572501E+03  4.272616E-09  6.057278E-11
   5.587501E+03  4.247908E-09  6.037180E-11
   5.602501E+03  4.258116E-09  6.043830E-11
   5.617501E+03  4.179509E-09  5.992455E-11
   5.632501E+03  4.165963E-09  5.982414E-11
   5.647501E+03  4.137630E-09  5.960708E-11
   5.662501E+03  4.136485E-09  5.959203E-11
   5.677501E+03  4.111587E-09  5.942906E-11
   5.692501E+03  4.082968E-09  5.921954E-11
   5.707501E+03  4.070662E-09  5.915454E-11
   5.722501E+03  4.071711E-09  5.914271E-11
   5.737501E+03  4.025634E-09  5.880727E-11
   5.752501E+03  4.068277E-09  5.909581E-11
   5.767501E+03  4.007032E-09  5.868778E-11
   5.782501E+03  4.025730E-09  5.881354E-11
   5.797501E+03  3.961051E-09  5.834477E-11
   5.812501E+03  3.939682E-09  5.815761E-11
   5.827501E+03  3.966393E-09  5.838235E-11
   5.842501E+03  3.897422E-09  5.784589E-11
   5.857501E+03  3.860312E-09  5.758481E-11
   5.872501E+03  3.882063E-09  5.773128E-11
   5.887501E+03  3.857069E-09  5.755797E-11
   5.902501E+03  3.829595E-09  5.735429E-11
   5.917501E+03  3.801834E-09  5.713913E-11
   5.932501E+03  3.809848E-09  5.722032E-11
   5.947501E+03  3.783327E-09  5.700817E-11
   5.962501E+03  3.811565E-09  5.722022E-11
   5.977501E+03  3.782564E-09  5.699097E-11
   5.992501E+03  3.742402E-09  5.669429E-11
   6.007501E+03  3.713783E-09  5.648316E-11
   6.022501E+03  3.740971E-09  5.669799E-11
   6.037501E+03  3.695754E-09  5.634118E-11
   6.052501E+03  3.650917E-09  5.600983E-11
   6.067501E+03  3.645384E-09  5.593405E-11
   6.082501E+03  3.608561E-09  5.565428E-11
   6.097501E+03  3.628690E-09  5.584780E-11
   6.112501E+03  3.635845E-09  5.587306E-11
   6.127501E+03  3.585666E-09  5.550082E-11
   6.142501E+03  3.569735E-09  5.537540E-11
   6.157501E+03  3.574600E-09  5.539952E-11
   6.172501E+03  3.547698E-09  5.522481E-11
   6.187501E+03  3.554758E-09  5.524963E-11
   6.202501E+03  3.518889E-09  5.498563E-11
   6.217501E+03  3.513165E-09  5.492782E-11
   6.232501E+03  3.487026E-09  5.471862E-11
   6.247501E+03  3.454114E-09  5.447816E-11
   6.262501E+03  3.435035E-09  5.432112E-11
   6.277501E+03  3.438183E-09  5.432622E-11
   6.292501E+03  3.427785E-09  5.425211E-11
   6.307501E+03  3.429407E-09  5.426335E-11
   6.322501E+03  3.375889E-09  5.383514E-11
   6.337501E+03  3.355761E-09  5.368159E-11
   6.352501E+03  3.386097E-09  5.389617E-11
   6.367501E+03  3.357955E-09  5.368986E-11
   6.382501E+03  3.327714E-09  5.343844E-11
   6.397501E+03  3.350228E-09  5.363610E-11
   6.412501E+03  3.304914E-09  5.327926E-11
   6.427501E+03  3.288220E-09  5.314856E-11
   6.442501E+03  3.294039E-09  5.320754E-11
   6.457501E+03  3.248821E-09  5.283613E-11
   6.472501E+03  3.247009E-09  5.281065E-11
   6.487501E+03  3.213906E-09  5.253017E-11
   6.502501E+03  3.217054E-09  5.256351E-11
   6.517501E+03  3.186527E-09  5.231053E-11
   6.532501E+03  3.230982E-09  5.270127E-11
   6.547501E+03  3.175843E-09  5.222961E-11
   6.562501E+03  3.154474E-09  5.206425E-11
   6.577501E+03  3.135109E-09  5.187377E-11
   6.592501E+03  3.127286E-09  5.182837E-11
   6.607501E+03  3.114503E-09  5.170722E-11
   6.622501E+03  3.081114E-09  5.145012E-11
   6.637501E+03  3.085598E-09  5.147137E-11
   6.652501E+03  3.043051E-09  5.112231E-11
   6.667501E+03  3.057838E-09  5.122797E-11
   6.682501E+03  3.068236E-09  5.131769E-11
   6.697501E+03  3.003843E-09  5.081176E-11
   6.712501E+03  3.015386E-09  5.089572E-11
   6.727501E+03  2.993063E-09  5.070662E-11
   6.742501E+03  2.992396E-09  5.068484E-11
   6.757501E+03  2.972935E-09  5.053533E-11
   6.772501E+03  2.977323E-09  5.056103E-11
   6.787501E+03  2.947368E-09  5.030759E-11
   6.802501E+03  2.915697E-09  5.003821E-11
