 #  Results from PENEPMA.
 #  Probability of emission of bremmstrahlung photons.
 #  1st column: E (eV).
 #  2nd and 3rd columns: probability density and STU (1/(eV*sr*electron)).

   5.250001E+01  5.547198E-07  5.401647E-09
   5.750001E+01  4.893894E-07  4.776125E-09
   6.250001E+01  4.338311E-07  4.109310E-09
   6.750001E+01  3.694198E-07  1.769373E-09
   7.250001E+01  3.347609E-07  1.105067E-09
   7.750001E+01  3.082663E-07  1.049508E-09
   8.250001E+01  2.846418E-07  9.353300E-10
   8.750001E+01  2.646800E-07  9.735745E-10
   9.250001E+01  2.473160E-07  1.024134E-09
   9.750001E+01  2.307693E-07  7.973847E-10
   1.025000E+02  2.172742E-07  9.201980E-10
   1.075000E+02  2.042048E-07  8.073815E-10
   1.125000E+02  1.933133E-07  8.847805E-10
   1.175000E+02  1.830570E-07  8.510700E-10
   1.225000E+02  1.738757E-07  8.800863E-10
   1.275000E+02  1.648181E-07  6.877882E-10
   1.325000E+02  1.573146E-07  7.780126E-10
   1.375000E+02  1.505564E-07  8.431633E-10
   1.425000E+02  1.436612E-07  7.200561E-10
   1.475000E+02  1.375889E-07  6.796347E-10
   1.525000E+02  1.320440E-07  6.779763E-10
   1.575000E+02  1.266341E-07  5.431008E-10
   1.625000E+02  1.220691E-07  6.749360E-10
   1.675000E+02  1.176336E-07  6.321709E-10
   1.725000E+02  1.136456E-07  7.115303E-10
   1.775000E+02  1.095611E-07  5.849762E-10
   1.825000E+02  1.059267E-07  6.496238E-10
   1.875000E+02  1.023080E-07  5.079526E-10
   1.925000E+02  9.900574E-08  4.791836E-10
   1.975000E+02  9.624957E-08  5.316145E-10
   2.025000E+02  9.315748E-08  4.473005E-10
   2.075000E+02  9.053626E-08  4.460683E-10
   2.125000E+02  8.882063E-08  7.774417E-10
   2.175000E+02  8.567085E-08  5.011966E-10
   2.225000E+02  8.333236E-08  4.724065E-10
   2.275000E+02  8.134833E-08  5.258400E-10
   2.325000E+02  7.955341E-08  6.412457E-10
   2.375000E+02  7.715299E-08  3.734341E-10
   2.425000E+02  7.540844E-08  4.689555E-10
   2.475000E+02  7.401682E-08  5.956169E-10
   2.525000E+02  7.230682E-08  5.950406E-10
   2.575000E+02  7.062488E-08  5.944678E-10
   2.625000E+02  6.916790E-08  5.939714E-10
   2.675000E+02  6.748167E-08  5.205210E-10
   2.725000E+02  6.575697E-08  3.282042E-10
   2.775000E+02  6.458880E-08  4.925852E-10
   2.825000E+02  6.322019E-08  4.335298E-10
   2.875000E+02  6.180281E-08  3.649352E-10
   2.925000E+02  6.079931E-08  4.324491E-10
   2.975000E+02  5.957376E-08  3.992119E-10
   3.025000E+02  5.835714E-08  4.312005E-10
   3.075000E+02  5.732679E-08  4.308067E-10
   3.125000E+02  5.617936E-08  3.618156E-10
   3.175000E+02  5.541255E-08  4.298177E-10
   3.225000E+02  5.439402E-08  4.293511E-10
   3.275000E+02  5.337291E-08  4.288445E-10
   3.325000E+02  5.247960E-08  4.284491E-10
   3.375000E+02  5.165686E-08  4.585806E-10
   3.425000E+02  5.070447E-08  3.946774E-10
   3.475000E+02  4.970411E-08  2.722763E-10
   3.525000E+02  4.878382E-08  1.400798E-10
   3.575000E+02  4.819580E-08  3.934347E-10
   3.625000E+02  4.736488E-08  2.705320E-10
   3.675000E+02  4.679283E-08  3.926764E-10
   3.725000E+02  4.615928E-08  4.561978E-10
   3.775000E+02  4.543382E-08  3.920195E-10
   3.825000E+02  4.464436E-08  3.553176E-10
   3.875000E+02  4.375685E-08  2.113332E-10
   3.925000E+02  4.338618E-08  3.909132E-10
   3.975000E+02  4.266676E-08  3.137080E-10
   4.025000E+02  4.225017E-08  3.903294E-10
   4.075000E+02  4.174777E-08  4.830866E-10
   4.125000E+02  4.099706E-08  4.229863E-10
   4.175000E+02  4.042728E-08  3.894372E-10
   4.225000E+02  3.980867E-08  3.890682E-10
   4.275000E+02  3.917357E-08  2.068968E-10
   4.325000E+02  3.877363E-08  3.519557E-10
   4.375000E+02  3.812509E-08  2.058643E-10
   4.425000E+02  3.783589E-08  3.880376E-10
   4.475000E+02  3.721015E-08  2.628560E-10
   4.525000E+02  3.669877E-08  3.097799E-10
   4.575000E+02  3.636464E-08  3.872824E-10
   4.625000E+02  3.595188E-08  3.870653E-10
   4.675000E+02  3.537023E-08  2.614498E-10
   4.725000E+02  3.490920E-08  2.610983E-10
   4.775000E+02  3.460447E-08  3.084202E-10
   4.825000E+02  3.420184E-08  3.081518E-10
   4.875000E+02  3.371456E-08  2.601684E-10
   4.925000E+02  3.333946E-08  3.076640E-10
   4.975000E+02  3.298675E-08  3.073636E-10
   5.025001E+02  3.243091E-08  2.002488E-10
   5.075001E+02  3.216367E-08  3.068227E-10
   5.125001E+02  3.173680E-08  2.586163E-10
   5.175001E+02  3.133104E-08  1.991401E-10
   5.225001E+02  3.111517E-08  2.581369E-10
   5.275001E+02  3.087387E-08  3.059670E-10
   5.325001E+02  3.046875E-08  1.982536E-10
   5.375001E+02  3.014082E-08  2.574034E-10
   5.425001E+02  2.988183E-08  3.053182E-10
   5.475001E+02  2.947487E-08  2.568616E-10
   5.525001E+02  2.916395E-08  2.566146E-10
   5.575001E+02  2.891033E-08  3.833739E-10
   5.625001E+02  2.867328E-08  3.832571E-10
   5.675001E+02  2.811182E-08  1.062213E-10
   5.725001E+02  2.806443E-08  3.457816E-10
   5.775001E+02  2.759537E-08  1.954193E-10
   5.825001E+02  2.726900E-08  1.046059E-10
   5.875001E+02  2.717530E-08  3.452621E-10
   5.925001E+02  2.690413E-08  3.033602E-10
   5.975001E+02  2.670319E-08  3.450511E-10
   6.025001E+02  2.625685E-08  1.939281E-10
   6.075001E+02  2.613203E-08  3.028322E-10
   6.125001E+02  2.583971E-08  2.540076E-10
   6.175001E+02  2.563137E-08  3.443604E-10
   6.225001E+02  2.522463E-08  1.928625E-10
   6.275001E+02  2.518896E-08  3.440996E-10
   6.325001E+02  2.468886E-08  9.949419E-11
   6.375001E+02  2.455213E-08  9.923575E-11
   6.425001E+02  2.433799E-08  1.919266E-10
   6.475001E+02  2.422468E-08  3.015668E-10
   6.525001E+02  2.387802E-08  1.914597E-10
   6.575001E+02  2.378636E-08  3.013550E-10
   6.625001E+02  2.344001E-08  1.909764E-10
   6.675001E+02  2.335924E-08  3.009980E-10
   6.725001E+02  2.305578E-08  1.905911E-10
   6.775001E+02  2.286525E-08  2.516299E-10
   6.825001E+02  2.277772E-08  3.426915E-10
   6.875001E+02  2.249734E-08  2.513444E-10
   6.925001E+02  2.239539E-08  3.003488E-10
   6.975001E+02  2.205446E-08  1.895215E-10
   7.025001E+02  2.187813E-08  1.894583E-10
   7.075001E+02  2.175302E-08  2.507463E-10
   7.125001E+02  2.158329E-08  2.998048E-10
   7.175001E+02  2.131410E-08  1.887322E-10
   7.225001E+02  2.110063E-08  9.198073E-11
   7.275001E+02  2.097135E-08  1.883819E-10
   7.325001E+02  2.074654E-08  9.122204E-11
   7.375001E+02  2.060055E-08  1.879914E-10
   7.425001E+02  2.050560E-08  1.878732E-10
   7.475001E+02  2.018514E-08  8.995010E-11
   7.525001E+02  2.008684E-08  1.874132E-10
   7.575001E+02  1.995244E-08  2.492997E-10
   7.625001E+02  1.977962E-08  8.906398E-11
   7.675001E+02  1.968970E-08  2.490880E-10
   7.725001E+02  1.941655E-08  8.823680E-11
   7.775001E+02  1.927538E-08  8.789409E-11
   7.825001E+02  1.912816E-08  8.758499E-11
   7.875001E+02  1.900744E-08  8.729788E-11
   7.925001E+02  1.885480E-08  8.695812E-11
   7.975001E+02  1.869131E-08  8.656630E-11
   8.025001E+02  1.870624E-08  2.482942E-10
   8.075001E+02  1.850099E-08  1.857174E-10
   8.125001E+02  1.830175E-08  8.566646E-11
   8.175001E+02  1.823365E-08  2.479170E-10
   8.225001E+02  1.800096E-08  8.493306E-11
   8.275001E+02  1.783142E-08  8.456451E-11
   8.325001E+02  1.779868E-08  1.849713E-10
   8.375001E+02  1.759410E-08  8.398975E-11
   8.425001E+02  1.743595E-08  8.360792E-11
   8.475001E+02  1.743390E-08  2.472696E-10
   8.525001E+02  1.733763E-08  2.471864E-10
   8.575001E+02  1.721699E-08  2.470829E-10
   8.625001E+02  1.706701E-08  2.469619E-10
   8.675001E+02  1.689433E-08  8.228286E-11
   8.725001E+02  1.682690E-08  2.467768E-10
   8.775001E+02  1.662396E-08  1.836913E-10
   8.825001E+02  1.652906E-08  1.835769E-10
   8.875001E+02  1.653346E-08  2.964030E-10
   8.925001E+02  1.627356E-08  1.833021E-10
   8.975001E+02  1.617217E-08  1.831970E-10
   9.025001E+02  1.600706E-08  8.008307E-11
   9.075001E+02  1.594741E-08  7.992887E-11
   9.125001E+02  1.583680E-08  1.828243E-10
   9.175001E+02  1.577428E-08  2.459104E-10
   9.225001E+02  1.557841E-08  1.825283E-10
   9.275001E+02  1.561872E-08  2.957810E-10
   9.325001E+02  1.538694E-08  7.852717E-11
   9.375001E+02  1.531529E-08  2.455383E-10
   9.425001E+02  1.518812E-08  7.803607E-11
   9.475001E+02  1.511564E-08  1.820248E-10
   9.525001E+02  1.499045E-08  7.749960E-11
   9.575001E+02  1.487997E-08  1.817576E-10
   9.625001E+02  1.483280E-08  1.817193E-10
   9.675001E+02  1.464952E-08  7.662839E-11
   9.725001E+02  1.452532E-08  7.629076E-11
   9.775001E+02  1.448440E-08  1.813282E-10
   9.825001E+02  1.442647E-08  7.602805E-11
   9.875001E+02  1.434523E-08  1.811848E-10
   9.925001E+02  1.421951E-08  7.547073E-11
   9.975001E+02  1.411247E-08  7.520797E-11
   1.002500E+03  1.401326E-08  7.496499E-11
   1.007500E+03  1.395105E-08  1.807354E-10
   1.012500E+03  1.387082E-08  1.806444E-10
   1.017500E+03  1.374287E-08  7.423462E-11
   1.022500E+03  1.371795E-08  1.804860E-10
   1.027500E+03  1.363070E-08  1.803890E-10
   1.032500E+03  1.345217E-08  7.339820E-11
   1.037500E+03  1.366388E-08  3.373140E-10
   1.042500E+03  1.333462E-08  1.800414E-10
   1.047500E+03  1.328003E-08  1.799948E-10
   1.052500E+03  1.320042E-08  1.799070E-10
   1.057500E+03  1.303923E-08  7.229131E-11
   1.062500E+03  1.302207E-08  7.223372E-11
   1.067500E+03  1.302504E-08  2.436596E-10
   1.072500E+03  1.278804E-08  7.157880E-11
   1.077500E+03  1.277479E-08  7.153873E-11
   1.082500E+03  1.267869E-08  7.127107E-11
   1.087500E+03  1.261315E-08  1.792517E-10
   1.092500E+03  1.252956E-08  7.084497E-11
   1.097500E+03  1.247793E-08  1.790951E-10
   1.102500E+03  1.236141E-08  7.037328E-11
   1.107500E+03  1.233783E-08  1.789388E-10
   1.112500E+03  1.233429E-08  2.430878E-10
   1.117500E+03  1.218727E-08  1.787697E-10
   1.122500E+03  1.205257E-08  6.948194E-11
   1.127500E+03  1.199767E-08  6.933287E-11
   1.132500E+03  1.193962E-08  6.917045E-11
   1.137500E+03  1.185112E-08  6.890539E-11
   1.142500E+03  1.189810E-08  2.427348E-10
   1.147500E+03  1.172591E-08  6.853674E-11
   1.152500E+03  1.173082E-08  1.782566E-10
   1.157500E+03  1.158949E-08  6.814797E-11
   1.162500E+03  1.154562E-08  6.799719E-11
   1.167500E+03  1.152524E-08  1.780271E-10
   1.172500E+03  1.138591E-08  6.753463E-11
   1.177500E+03  1.136862E-08  6.749114E-11
   1.182500E+03  1.130410E-08  1.777782E-10
   1.187500E+03  1.120309E-08  6.697792E-11
   1.192500E+03  1.111410E-08  6.672711E-11
   1.197500E+03  1.112145E-08  1.775732E-10
   1.202500E+03  1.098897E-08  6.635760E-11
   1.207500E+03  1.106942E-08  2.420460E-10
   1.212500E+03  1.091705E-08  6.610456E-11
   1.217500E+03  1.083166E-08  6.588149E-11
   1.222500E+03  1.076716E-08  6.566520E-11
   1.227500E+03  1.072218E-08  6.554560E-11
   1.232500E+03  1.059403E-08  6.514963E-11
   1.237500E+03  1.060757E-08  1.769915E-10
   1.242500E+03  1.054363E-08  6.498425E-11
   1.247500E+03  1.046002E-08  6.475509E-11
   1.252500E+03  1.041997E-08  6.461483E-11
   1.257500E+03  1.033027E-08  6.431214E-11
   1.262500E+03  1.026510E-08  6.412993E-11
   1.267500E+03  1.024017E-08  6.403119E-11
   1.272500E+03  1.022372E-08  6.399528E-11
   1.277500E+03  1.012104E-08  6.369175E-11
   1.282500E+03  1.008870E-08  1.764032E-10
   1.287500E+03  1.002094E-08  6.336634E-11
   1.292500E+03  9.975422E-09  6.322478E-11
   1.297500E+03  9.914347E-09  6.301673E-11
   1.302500E+03  9.851051E-09  6.282764E-11
   1.307500E+03  9.819047E-09  6.271518E-11
   1.312500E+03  9.756461E-09  6.250746E-11
   1.317500E+03  9.716056E-09  6.238280E-11
   1.322500E+03  9.676807E-09  6.226524E-11
   1.327500E+03  9.669493E-09  1.759212E-10
   1.332500E+03  9.559414E-09  6.186114E-11
   1.337500E+03  9.554901E-09  1.757934E-10
   1.342500E+03  9.442600E-09  6.148217E-11
   1.347500E+03  9.382681E-09  6.130971E-11
   1.352500E+03  9.369791E-09  6.125826E-11
   1.357500E+03  9.271423E-09  6.092290E-11
   1.362500E+03  9.292625E-09  6.100607E-11
   1.367500E+03  9.196791E-09  6.070648E-11
   1.372500E+03  9.164432E-09  6.059700E-11
   1.377500E+03  9.129316E-09  6.045485E-11
   1.382500E+03  9.062463E-09  6.023134E-11
   1.387500E+03  8.993699E-09  6.001700E-11
   1.392500E+03  8.973919E-09  5.994124E-11
   1.397500E+03  8.927335E-09  5.978805E-11
   1.402500E+03  8.910533E-09  5.974262E-11
   1.407500E+03  8.871195E-09  5.959489E-11
   1.412500E+03  8.800697E-09  5.934907E-11
   1.417500E+03  8.784206E-09  5.931692E-11
   1.422500E+03  8.687883E-09  5.899986E-11
   1.427500E+03  8.661969E-09  5.889413E-11
   1.432500E+03  8.653968E-09  5.887678E-11
   1.437500E+03  8.570535E-09  5.858140E-11
   1.442500E+03  8.523730E-09  5.843686E-11
   1.447500E+03  8.473323E-09  5.824927E-11
   1.452500E+03  8.468211E-09  5.822315E-11
   1.457500E+03  8.388602E-09  5.796708E-11
   1.462500E+03  8.372466E-09  5.789941E-11
   1.467500E+03  8.381890E-09  5.792343E-11
   1.472500E+03  8.280410E-09  5.758607E-11
   1.477500E+03  8.223025E-09  5.737448E-11
   1.482500E+03  8.218625E-09  5.735784E-11
   1.487500E+03  8.149683E-09  5.712268E-11
   1.492500E+03  8.097587E-09  5.692167E-11
   1.497500E+03  8.097054E-09  5.694856E-11
   1.502500E+03  8.049493E-09  5.678143E-11
   1.507500E+03  7.993086E-09  5.655693E-11
   1.512500E+03  7.982195E-09  5.653851E-11
   1.517500E+03  7.948991E-09  5.642687E-11
   1.522500E+03  7.906675E-09  5.625943E-11
   1.527500E+03  7.857602E-09  5.607156E-11
   1.532500E+03  7.835644E-09  5.600995E-11
   1.537500E+03  7.787504E-09  5.585253E-11
   1.542500E+03  7.748388E-09  5.569399E-11
   1.547500E+03  7.698871E-09  5.553588E-11
   1.552500E+03  7.668467E-09  5.541317E-11
   1.557500E+03  7.588146E-09  5.511752E-11
   1.562500E+03  7.580456E-09  5.510584E-11
   1.567500E+03  7.548408E-09  5.498498E-11
   1.572500E+03  7.499024E-09  5.479539E-11
   1.577500E+03  7.513515E-09  5.484229E-11
   1.582500E+03  7.454841E-09  5.463170E-11
   1.587500E+03  7.423503E-09  5.452049E-11
   1.592500E+03  7.389810E-09  5.439299E-11
   1.597500E+03  7.345271E-09  5.422020E-11
   1.602500E+03  7.264595E-09  5.392113E-11
   1.607500E+03  7.295799E-09  5.403937E-11
   1.612500E+03  7.262194E-09  5.391796E-11
   1.617500E+03  7.257794E-09  5.392033E-11
   1.622500E+03  7.179740E-09  5.360895E-11
   1.627500E+03  7.150847E-09  5.350656E-11
   1.632500E+03  7.095196E-09  5.329972E-11
   1.637500E+03  7.062881E-09  5.317666E-11
   1.642500E+03  7.034833E-09  5.307956E-11
   1.647500E+03  7.006874E-09  5.297120E-11
   1.652500E+03  6.970336E-09  5.283462E-11
   1.657500E+03  6.929575E-09  5.267613E-11
   1.662500E+03  6.923797E-09  5.264570E-11
   1.667500E+03  6.878102E-09  5.246096E-11
   1.672500E+03  6.830630E-09  5.229639E-11
   1.677500E+03  6.808893E-09  5.219932E-11
   1.682500E+03  6.812850E-09  5.222653E-11
   1.687500E+03  6.754842E-09  5.201304E-11
   1.692500E+03  6.725683E-09  5.188686E-11
   1.697500E+03  6.711148E-09  5.183634E-11
   1.702500E+03  6.678699E-09  5.170301E-11
   1.707500E+03  6.616914E-09  5.149560E-11
   1.712500E+03  6.626382E-09  5.150495E-11
   1.717500E+03  6.531437E-09  5.112338E-11
   1.722500E+03  6.530370E-09  5.114882E-11
   1.727500E+03  6.533659E-09  5.115143E-11
   1.732500E+03  6.469918E-09  5.089815E-11
   1.737500E+03  6.451427E-09  5.082391E-11
   1.742500E+03  6.426001E-09  5.072257E-11
   1.747500E+03  6.388930E-09  5.057767E-11
   1.752500E+03  6.343280E-09  5.041214E-11
   1.757500E+03  6.360838E-09  5.045975E-11
   1.762500E+03  6.303719E-09  5.023743E-11
   1.767500E+03  6.315276E-09  5.028604E-11
   1.772500E+03  6.267404E-09  5.007775E-11
   1.777500E+03  6.213841E-09  4.988311E-11
   1.782500E+03  6.202862E-09  4.983818E-11
   1.787500E+03  6.181482E-09  4.974977E-11
   1.792500E+03  6.147167E-09  4.961473E-11
   1.797500E+03  6.102539E-09  4.943235E-11
   1.802500E+03  6.112007E-09  4.947163E-11
   1.807500E+03  6.060533E-09  4.927280E-11
   1.812500E+03  6.059867E-09  4.926435E-11
   1.817500E+03  6.033419E-09  4.915922E-11
   1.822500E+03  6.000215E-09  4.900559E-11
   1.827500E+03  5.921583E-09  4.869068E-11
   1.832500E+03  5.941052E-09  4.878460E-11
   1.837500E+03  5.901536E-09  4.859934E-11
   1.842500E+03  5.886912E-09  4.854091E-11
   1.847500E+03  5.849618E-09  4.839025E-11
   1.852500E+03  5.847662E-09  4.839034E-11
   1.857500E+03  5.822548E-09  4.827326E-11
   1.862500E+03  5.777876E-09  4.809584E-11
   1.867500E+03  5.749295E-09  4.799116E-11
   1.872500E+03  5.726759E-09  4.787889E-11
   1.877500E+03  5.709023E-09  4.780149E-11
   1.882500E+03  5.683909E-09  4.770306E-11
   1.887500E+03  5.643015E-09  4.752647E-11
   1.892500E+03  5.631280E-09  4.748397E-11
   1.897500E+03  5.577851E-09  4.724507E-11
   1.902500E+03  5.553537E-09  4.716088E-11
   1.907500E+03  5.578429E-09  4.725201E-11
   1.912500E+03  5.532601E-09  4.707411E-11
   1.917500E+03  5.506420E-09  4.695410E-11
   1.922500E+03  5.474727E-09  4.681694E-11
   1.927500E+03  5.461392E-09  4.676359E-11
   1.932500E+03  5.448813E-09  4.669777E-11
   1.937500E+03  5.407652E-09  4.651615E-11
   1.942500E+03  5.403429E-09  4.650583E-11
   1.947500E+03  5.341999E-09  4.623176E-11
   1.952500E+03  5.323730E-09  4.618391E-11
   1.957500E+03  5.322308E-09  4.615663E-11
   1.962500E+03  5.313329E-09  4.612043E-11
   1.967500E+03  5.284837E-09  4.599258E-11
   1.972500E+03  5.246521E-09  4.583630E-11
   1.977500E+03  5.225763E-09  4.573101E-11
   1.982500E+03  5.224918E-09  4.573435E-11
   1.987500E+03  5.202649E-09  4.562305E-11
   1.992500E+03  5.162866E-09  4.546339E-11
   1.997500E+03  5.159977E-09  4.543711E-11
   2.002500E+03  5.122594E-09  4.528610E-11
   2.007500E+03  5.075433E-09  4.506443E-11
   2.012500E+03  5.085923E-09  4.512547E-11
   2.017500E+03  5.051519E-09  4.498611E-11
   2.022500E+03  5.053919E-09  4.498916E-11
   2.027500E+03  5.016626E-09  4.479732E-11
   2.032500E+03  5.026582E-09  4.486035E-11
   2.037500E+03  4.985599E-09  4.467547E-11
   2.042500E+03  4.960530E-09  4.455581E-11
   2.047500E+03  4.941683E-09  4.447315E-11
   2.052500E+03  4.901500E-09  4.430666E-11
   2.057500E+03  4.877675E-09  4.418875E-11
   2.062500E+03  4.873141E-09  4.417245E-11
   2.067500E+03  4.857717E-09  4.410362E-11
   2.072500E+03  4.811978E-09  4.387783E-11
   2.077500E+03  4.816556E-09  4.391712E-11
   2.082500E+03  4.804644E-09  4.385849E-11
   2.087500E+03  4.775173E-09  4.371661E-11
   2.092500E+03  4.738769E-09  4.354721E-11
   2.097500E+03  4.700186E-09  4.337539E-11
   2.102500E+03  4.729212E-09  4.350902E-11
   2.107500E+03  4.700497E-09  4.338214E-11
   2.112500E+03  4.665337E-09  4.321176E-11
   2.117500E+03  4.657203E-09  4.316991E-11
   2.122500E+03  4.635600E-09  4.306979E-11
   2.127500E+03  4.614042E-09  4.296220E-11
   2.132500E+03  4.604530E-09  4.291498E-11
   2.137500E+03  4.562169E-09  4.273386E-11
   2.142500E+03  4.559413E-09  4.271483E-11
   2.147500E+03  4.564036E-09  4.274584E-11
   2.152500E+03  4.533765E-09  4.261067E-11
   2.157500E+03  4.513807E-09  4.250516E-11
   2.162500E+03  4.493405E-09  4.241158E-11
   2.167500E+03  4.442465E-09  4.216646E-11
   2.172500E+03  4.417217E-09  4.204250E-11
   2.177500E+03  4.416417E-09  4.203365E-11
   2.182500E+03  4.396193E-09  4.194958E-11
   2.187500E+03  4.387080E-09  4.190224E-11
   2.192500E+03  4.387125E-09  4.189991E-11
   2.197500E+03  4.371790E-09  4.182854E-11
   2.202500E+03  4.316983E-09  4.156319E-11
   2.207500E+03  4.313560E-09  4.154899E-11
   2.212500E+03  4.285912E-09  4.142497E-11
   2.217500E+03  4.276667E-09  4.138240E-11
   2.222500E+03  4.278889E-09  4.138661E-11
   2.227500E+03  4.275911E-09  4.136889E-11
   2.232500E+03  4.236350E-09  4.118699E-11
   2.237500E+03  4.216392E-09  4.107474E-11
   2.242500E+03  4.209858E-09  4.104838E-11
   2.247500E+03  4.187322E-09  4.094541E-11
   2.252500E+03  4.155896E-09  4.077761E-11
   2.257500E+03  4.148828E-09  4.074757E-11
   2.262500E+03  4.121581E-09  4.063264E-11
   2.267500E+03  4.105623E-09  4.054281E-11
   2.272500E+03  4.107979E-09  4.054118E-11
   2.277500E+03  4.071219E-09  4.036572E-11
   2.282500E+03  4.082331E-09  4.042251E-11
   2.287500E+03  4.057395E-09  4.030080E-11
   2.292500E+03  4.015567E-09  4.008279E-11
   2.297500E+03  4.008055E-09  4.005624E-11
